# Plate Voltage(V) | Photocurrent(10^-8 A)
-4.00	-0.0007
-3.50	-0.0005
-3.00	-0.0005
-2.50	-0.0005
-2.00	0.0000
-1.50	0.0031
-1.00	0.0067
-0.50	0.0100
0.00	0.0136
0.50	0.0181
1.00	0.0239
1.50	0.0303
2.00	0.0373
2.50	0.0446
3.00	0.0517
3.50	0.0583
4.00	0.0651