# Plate Voltage(V) | Photocurrent(10^-8 A)
-4.00	-0.0022
-3.50	-0.0022
-3.00	-0.0022
-2.50	-0.0022
-2.00	-0.0023
-1.50	-0.0020
-1.00	0.0010
-0.50	0.0270
0.00	0.0703
0.50	0.1163
1.00	0.1625
1.50	0.2104
2.00	0.2605
2.50	0.3085
3.00	0.3508
3.50	0.3874
4.00	0.4285