# Plate Voltage(V) | Photocurrent(10^-8 A)
-4.00	-0.0007
-3.50	-0.0007
-3.00	-0.0007
-2.50	-0.0007
-2.00	-0.0007
-1.50	-0.0007
-1.00	-0.0005
-0.50	0.0005
0.00	0.0130
0.50	0.0284
1.00	0.0400
1.50	0.0486
2.00	0.0561
2.50	0.0630
3.00	0.0686
3.50	0.0729
4.00	0.0786