# Plate Voltage(V) | Photocurrent(10^-8 A)
-4.00	-0.0005
-3.50	-0.0005
-3.00	-0.0005
-2.50	-0.0005
-2.00	-0.0005
-1.50	-0.0005
-1.00	-0.0005
-0.50	0.0002
0.00	0.0118
0.50	0.0267
1.00	0.0379
1.50	0.0462
2.00	0.0533
2.50	0.0599
3.00	0.0654
3.50	0.0698
4.00	0.0734